,0
0,0.6055414918334084
1,0.6055414918334084
2,0.6055414918334084
3,0.6055414918334084
4,0.6055414918334084
5,0.6055414918334084
6,0.6055414918334084
7,0.6055414918334084
8,0.6055414918334084
9,0.60987620071436
10,0.6142109095953115
11,0.6358844540000693
12,0.6532232895238755
13,0.6445538717619724
14,0.6228803273572147
15,0.5925373651905538
16,0.5361861497381836
17,0.5058431875715227
18,0.5275167319762805
19,0.5838679474286507
20,0.6228803273572147
21,0.5925373651905538
22,0.5101778964524742
23,0.5015084786905711
24,0.5578596941429413
25,0.6445538717619724
26,0.6618927072857786
27,0.6272150362381662
28,0.5925373651905538
29,0.5751985296667476
30,0.5751985296667476
31,0.5621944030238929
32,0.5491902763810382
33,0.5405208586191351
34,0.5491902763810382
35,0.570863820785796
36,0.5751985296667476
37,0.5448555675000867
38,0.5015084786905711
39,0.47983493428581336
40,0.46249609876200715
41,0.4668308076429587
42,0.4408225543572494
43,0.42348371883344316
44,0.4018101744286854
45,0.37580192114297606
46,0.3454589589763151
47,0.3454589589763151
48,0.3584630856191698
49,0.3584630856191698
50,0.3584630856191698
51,0.34112425009536357
52,0.34112425009536357
53,0.336789541214412
54,0.33245483233346046
55,0.32378541457155735
56,0.3021118701667996
57,0.31511599680965424
58,0.3107812879287027
59,0.30644657904775113
60,0.29344245240489647
61,0.28477303464299336
62,0.297777161285848
63,0.3107812879287027
64,0.3021118701667996
65,0.2804383257620418
66,0.26743419911918714
67,0.26743419911918714
68,0.29344245240489647
69,0.30644657904775113
70,0.2891077435239449
71,0.2544300724763325
72,0.2544300724763325
73,0.2717689080001387
74,0.3021118701667996
75,0.31511599680965424
76,0.30644657904775113
77,0.2891077435239449
78,0.28477303464299336
79,0.2891077435239449
80,0.3107812879287027
81,0.31511599680965424
82,0.297777161285848
83,0.2891077435239449
84,0.3021118701667996
85,0.297777161285848
86,0.3021118701667996
87,0.28477303464299336
88,0.2804383257620418
89,0.297777161285848
90,0.29344245240489647
91,0.28477303464299336
92,0.2717689080001387
93,0.24142594583347782
94,0.24576065471442937
95,0.29344245240489647
96,0.38447133890487917
97,0.4755002254048618
98,0.5491902763810382
99,0.6012067829524569
100,0.6272150362381662
101,0.6315497451191178
102,0.6575579984048271
103,0.7399174671429066
104,0.8222769358809863
105,0.9176405312619205
106,0.9739917467142907
107,1.0
108,0.9826611644761938
109,0.9523182023095329
110,0.9306446579047751
111,0.9176405312619205
112,0.9046364046190658
113,0.8786281513333565
114,0.8396157714047925
115,0.7919339737143254
116,0.7399174671429066
117,0.687900960571488
118,0.6445538717619724
119,0.6055414918334084
120,0.5361861497381836
121,0.4364878454762978
122,0.3281201234525089
123,0.21108298366681694
124,0.10271526164302805
125,0.029025210666851604
126,-0.018656587023615504
127,-0.04033013142837328
128,-0.08367722023788883
129,-0.11835489128550128
130,-0.15303256233311371
131,-0.1443631445712106
132,-0.1270243090474044
133,-0.11835489128550128
134,-0.11402018240454972
135,-0.11835489128550128
136,-0.10101605576169505
137,-0.07934251135693728
138,-0.06200367583313106
139,-0.057668966952179504
140,-0.044664840309324834
141,-0.04899954919027639
142,-0.04899954919027639
143,-0.03166071366647017
144,0.007351666262093829
145,0.03335991954780316
146,0.042029337309706274
147,0.03335991954780316
148,0.03335991954780316
149,0.05069875507160938
150,0.05503346395256094
151,0.05503346395256094
152,0.05503346395256094
153,0.04636404619065783
154,0.042029337309706274
155,0.05069875507160938
156,0.04636404619065783
157,0.03335991954780316
158,0.03335991954780316
159,0.01602108402399694
160,0.01602108402399694
161,0.020355792904948496
162,0.029025210666851604
163,0.029025210666851604
164,0.02469050178590005
165,0.01602108402399694
166,-0.005652460380760837
167,-0.005652460380760837
168,0.003016957381142274
169,0.020355792904948496
170,0.02469050178590005
171,0.01602108402399694
172,0.003016957381142274
173,0.007351666262093829
174,0.01602108402399694
175,0.01602108402399694
176,0.007351666262093829
177,0.007351666262093829
178,0.003016957381142274
179,0.020355792904948496
180,0.03335991954780316
181,0.02469050178590005
182,0.029025210666851604
183,0.03335991954780316
184,0.03769462842875471
185,0.03769462842875471
186,0.03769462842875471
187,0.05936817283351249
188,0.06370288171446405
189,0.07670700835731871
190,0.0680375905954156
191,0.09404584388112494
192,0.09404584388112494
193,0.10271526164302805
194,0.11138467940493116
195,0.12005409716683427
196,0.12005409716683427
197,0.13305822380968893
198,0.15039705933349515
199,0.15039705933349515
200,0.13739293269064048
201,0.12872351492873738
202,0.15039705933349515
203,0.18940943926205916
204,0.2240871103096716
205,0.2327565280715747
206,0.2154176925477685
207,0.20674827478586538
208,0.21108298366681694
209,0.24576065471442937
210,0.2717689080001387
211,0.26743419911918714
212,0.25876478135728403
213,0.2630994902382356
214,0.24576065471442937
215,0.2544300724763325
216,0.2804383257620418
217,0.2891077435239449
218,0.297777161285848
219,0.29344245240489647
220,0.28477303464299336
221,0.29344245240489647
222,0.3194507056906058
223,0.31511599680965424
224,0.3021118701667996
225,0.29344245240489647
226,0.29344245240489647
227,0.297777161285848
228,0.30644657904775113
229,0.30644657904775113
230,0.297777161285848
231,0.3021118701667996
232,0.3107812879287027
233,0.3281201234525089
234,0.3454589589763151
235,0.3454589589763151
236,0.336789541214412
237,0.31511599680965424
238,0.29344245240489647
239,0.28477303464299336
240,0.31511599680965424
241,0.3281201234525089
242,0.32378541457155735
243,0.297777161285848
244,0.2717689080001387
245,0.2891077435239449
246,0.297777161285848
247,0.29344245240489647
248,0.26743419911918714
249,0.2500953635953809
250,0.24576065471442937
251,0.2804383257620418
252,0.31511599680965424
253,0.3281201234525089
254,0.3021118701667996
255,0.28477303464299336
256,0.2804383257620418
257,0.2891077435239449
258,0.30644657904775113
259,0.29344245240489647
260,0.27610361688109025
261,0.2630994902382356
262,0.26743419911918714
263,0.28477303464299336
264,0.29344245240489647
265,0.28477303464299336
266,0.2717689080001387
267,0.24576065471442937
268,0.2240871103096716
269,0.2154176925477685
270,0.19807885702396227
271,0.17640531261920447
272,0.1460623504525436
273,0.12872351492873738
274,0.10271526164302805
275,0.08537642611922182
276,0.07670700835731871
277,0.06370288171446405
278,0.07237229947636716
279,0.07237229947636716
280,0.07237229947636716
281,0.08104171723827026
282,0.08971113500017339
283,0.08104171723827026
284,0.07670700835731871
285,0.05936817283351249
286,0.04636404619065783
287,0.042029337309706274
288,0.05936817283351249
289,0.05503346395256094
290,0.05069875507160938
291,0.03335991954780316
292,0.03335991954780316
293,0.04636404619065783
294,0.05936817283351249
295,0.06370288171446405
296,0.05503346395256094
297,0.05503346395256094
298,0.06370288171446405
299,0.07237229947636716
300,0.07670700835731871
301,0.05936817283351249
302,0.042029337309706274
303,0.03769462842875471
304,0.042029337309706274
305,0.0680375905954156
306,0.08104171723827026
307,0.04636404619065783
308,0.029025210666851604
309,0.01602108402399694
310,0.03335991954780316
311,0.0680375905954156
312,0.08537642611922182
313,0.08104171723827026
314,0.06370288171446405
315,0.04636404619065783
316,0.05069875507160938
317,0.05936817283351249
318,0.07237229947636716
319,0.05503346395256094
320,0.03335991954780316
321,0.03335991954780316
322,0.02469050178590005
323,0.03335991954780316
324,0.02469050178590005
325,0.02469050178590005
326,0.03335991954780316
327,0.09404584388112494
328,0.18074002150015603
329,0.27610361688109025
330,0.3454589589763151
331,0.3801366300239276
332,0.4104795921905885
333,0.42348371883344316
334,0.47983493428581336
335,0.5751985296667476
336,0.6748968339286333
337,0.726913340500052
338,0.7745951381905192
339,0.7962686825952769
340,0.8006033914762285
341,0.7919339737143254
342,0.7962686825952769
343,0.7702604293095676
344,0.7529215937857614
345,0.7052397960952942
346,0.6445538717619724
347,0.6185456184762631
348,0.6012067829524569
349,0.5448555675000867
350,0.47116551652391025
351,0.39747546554773383
352,0.30644657904775113
353,0.18940943926205916
354,0.09404584388112494
355,-0.027326004785518613
356,-0.12268960016645283
357,-0.19637965114262926
358,-0.24406144883309638
359,-0.2787391198807088
360,-0.31341679092832125
361,-0.335090335333079
362,-0.33075562645212747
363,-0.335090335333079
364,-0.3480944619759337
365,-0.33075562645212747
366,-0.3090820820473697
367,-0.2830738287616604
368,-0.27440441099975726
369,-0.26573499323785416
370,-0.26573499323785416
371,-0.24839615771404794
372,-0.2137184866664355
373,-0.2050490689045324
374,-0.1920449422616777
375,-0.17904081561882304
376,-0.16170198009501682
377,-0.16170198009501682
378,-0.1356937268093075
379,-0.1443631445712106
380,-0.1443631445712106
381,-0.14869785345216216
382,-0.14869785345216216
383,-0.15303256233311371
384,-0.1443631445712106
385,-0.14869785345216216
386,-0.16170198009501682
387,-0.15736727121406527
388,-0.16603668897596838
389,-0.16603668897596838
390,-0.16170198009501682
391,-0.17037139785691993
392,-0.17470610673787149
393,-0.1833755244997746
394,-0.1833755244997746
395,-0.16603668897596838
396,-0.16170198009501682
397,-0.17037139785691993
398,-0.1833755244997746
399,-0.19637965114262926
400,-0.20071436002358084
401,-0.18771023338072615
402,-0.17037139785691993
403,-0.17904081561882304
404,-0.1833755244997746
405,-0.1833755244997746
406,-0.18771023338072615
407,-0.17904081561882304
408,-0.15303256233311371
409,-0.16170198009501682
410,-0.16170198009501682
411,-0.16603668897596838
412,-0.17037139785691993
413,-0.14869785345216216
414,-0.13135901792835594
415,-0.12268960016645283
416,-0.11402018240454972
417,-0.12268960016645283
418,-0.11835489128550128
419,-0.11402018240454972
420,-0.08801192911884038
421,-0.07067309359503417
422,-0.07067309359503417
423,-0.07067309359503417
424,-0.07067309359503417
425,-0.057668966952179504
426,-0.027326004785518613
427,-0.009987169261712392
428,-0.005652460380760837
429,-0.0013177514998092817
430,-0.005652460380760837
431,0.01602108402399694
432,0.04636404619065783
433,0.05936817283351249
434,0.05503346395256094
435,0.05936817283351249
436,0.06370288171446405
437,0.08971113500017339
438,0.1070499705239796
439,0.1070499705239796
440,0.11571938828588271
441,0.11571938828588271
442,0.11571938828588271
443,0.12438880604778582
444,0.13305822380968893
445,0.13739293269064048
446,0.13305822380968893
447,0.13739293269064048
448,0.1460623504525436
449,0.1547317682144467
450,0.18074002150015603
451,0.18074002150015603
452,0.17640531261920447
453,0.15906647709539826
454,0.1547317682144467
455,0.15906647709539826
456,0.18074002150015603
457,0.1850747303811076
458,0.19807885702396227
459,0.20674827478586538
460,0.21975240142872005
461,0.21975240142872005
462,0.19807885702396227
463,0.1850747303811076
464,0.17640531261920447
465,0.15906647709539826
466,0.14172764157159204
467,0.13739293269064048
468,0.14172764157159204
469,0.14172764157159204
470,0.1460623504525436
471,0.14172764157159204
472,0.14172764157159204
473,0.1634011859763498
474,0.1850747303811076
475,0.1850747303811076
476,0.19807885702396227
477,0.19374414814301072
478,0.20241356590491383
479,0.1850747303811076
480,0.1634011859763498
481,0.13739293269064048
482,0.12872351492873738
483,0.1070499705239796
484,0.1070499705239796
485,0.11571938828588271
486,0.13305822380968893
487,0.12005409716683427
488,0.12872351492873738
489,0.12005409716683427
490,0.11571938828588271
491,0.12005409716683427
492,0.12872351492873738
493,0.0983805527620765
494,0.05936817283351249
495,0.029025210666851604
496,-0.009987169261712392
497,-0.02299129590456706
498,-0.04033013142837328
499,-0.057668966952179504
500,-0.07067309359503417
501,-0.08367722023788883
502,-0.08367722023788883
503,-0.07500780247598572
504,-0.06200367583313106
505,-0.07934251135693728
506,-0.07500780247598572
507,-0.08367722023788883
508,-0.07934251135693728
509,-0.08367722023788883
510,-0.07934251135693728
511,-0.10101605576169505
512,-0.11402018240454972
513,-0.12268960016645283
514,-0.12268960016645283
515,-0.10535076464264662
516,-0.09234663799979194
517,-0.09234663799979194
518,-0.10101605576169505
519,-0.10101605576169505
520,-0.0966813468807435
521,-0.057668966952179504
522,-0.04033013142837328
523,-0.04033013142837328
524,-0.057668966952179504
525,-0.07934251135693728
526,-0.08801192911884038
527,-0.08801192911884038
528,-0.09234663799979194
529,-0.09234663799979194
530,-0.07067309359503417
531,-0.07500780247598572
532,-0.07067309359503417
533,-0.08367722023788883
534,-0.07500780247598572
535,-0.057668966952179504
536,-0.027326004785518613
537,-0.014321878142663948
538,-0.014321878142663948
539,-0.044664840309324834
540,-0.057668966952179504
541,-0.08367722023788883
542,-0.11402018240454972
543,-0.12268960016645283
544,-0.1356937268093075
545,-0.10535076464264662
546,-0.06633838471408261
547,-0.08367722023788883
548,-0.11402018240454972
549,-0.17037139785691993
550,-0.18771023338072615
551,-0.18771023338072615
552,-0.17037139785691993
553,-0.12268960016645283
554,-0.044664840309324834
555,0.0680375905954156
556,0.15906647709539826
557,0.2544300724763325
558,0.3281201234525089
559,0.3714672122620245
560,0.4104795921905885
561,0.4494919721191525
562,0.5188473142143774
563,0.6272150362381662
564,0.7182439227381489
565,0.8092728092381316
566,0.8872975690952596
567,0.9393140756666782
568,0.9653223289523876
569,0.960987620071436
570,0.960987620071436
571,0.9349793667857267
572,0.9176405312619205
573,0.8699587335714534
574,0.7875992648333738
575,0.7225786316191004
576,0.648888580642924
577,0.5925373651905538
578,0.5275167319762805
579,0.4841696431667649
580,0.4104795921905885
581,0.29344245240489647
582,0.13739293269064048
583,-0.044664840309324834
584,-0.2050490689045324
585,-0.33075562645212747
586,-0.43478863959496483
587,-0.5084786905711413
588,-0.5431563616187537
589,-0.5778340326663661
590,-0.5908381593092208
591,-0.5865034504282692
592,-0.5908381593092208
593,-0.569164614904463
594,-0.5561604882616084
595,-0.5431563616187537
596,-0.5214828172139959
597,-0.5344869438568506
598,-0.5474910704997052
599,-0.5561604882616084
600,-0.5474910704997052
601,-0.5258175260949475
602,-0.4954745639282866
603,-0.4651316017616257
604,-0.42178451295211017
605,-0.39577625966640084
606,-0.3827721330235461
607,-0.3914415507854493
608,-0.39577625966640084
609,-0.4087803863092555
610,-0.40444567742830395
611,-0.4001109685473524
612,-0.3914415507854493
613,-0.39577625966640084
614,-0.37843742414259457
615,-0.3480944619759337
616,-0.3394250442140306
617,-0.335090335333079
618,-0.3567638797378368
619,-0.4001109685473524
620,-0.4174498040711586
621,-0.4391233484759164
622,-0.46079689288067416
623,-0.4651316017616257
624,-0.4738010195235288
625,-0.4781357284044804
626,-0.48247043728543193
627,-0.4868051461663835
628,-0.48247043728543193
629,-0.46079689288067416
630,-0.4477927662378195
631,-0.4477927662378195
632,-0.43478863959496483
633,-0.44345805735686794
634,-0.4477927662378195
635,-0.4391233484759164
636,-0.43478863959496483
637,-0.42178451295211017
638,-0.42178451295211017
639,-0.42178451295211017
640,-0.42178451295211017
641,-0.4087803863092555
642,-0.39577625966640084
643,-0.4087803863092555
644,-0.4174498040711586
645,-0.4261192218330617
646,-0.41311509519020706
647,-0.36976800638069146
648,-0.3394250442140306
649,-0.30474737316641815
650,-0.31341679092832125
651,-0.3567638797378368
652,-0.37843742414259457
653,-0.374102715261643
654,-0.3480944619759337
655,-0.30474737316641815
656,-0.2700697021188057
657,-0.2700697021188057
658,-0.2874085376426119
659,-0.29607795540451504
660,-0.3090820820473697
661,-0.3090820820473697
662,-0.3004126642854666
663,-0.2700697021188057
664,-0.2527308665949995
665,-0.23972673995214483
666,-0.2223879044283386
667,-0.2050490689045324
668,-0.18771023338072615
669,-0.17037139785691993
670,-0.17037139785691993
671,-0.16170198009501682
672,-0.1443631445712106
673,-0.14002843569025905
674,-0.13135901792835594
675,-0.14002843569025905
676,-0.0966813468807435
677,-0.06633838471408261
678,-0.035995422547421725
679,-0.04033013142837328
680,-0.06200367583313106
681,-0.07067309359503417
682,-0.057668966952179504
683,-0.027326004785518613
684,-0.018656587023615504
685,-0.027326004785518613
686,-0.03166071366647017
687,-0.035995422547421725
688,-0.04899954919027639
689,-0.04033013142837328
690,-0.02299129590456706
691,0.007351666262093829
692,0.05069875507160938
693,0.05503346395256094
694,0.05069875507160938
695,0.02469050178590005
696,-0.018656587023615504
697,-0.04899954919027639
698,-0.04033013142837328
699,-0.035995422547421725
700,-0.02299129590456706
701,0.011686375143045385
702,0.020355792904948496
703,0.007351666262093829
704,-0.04899954919027639
705,-0.07934251135693728
706,-0.07067309359503417
707,-0.03166071366647017
708,-0.014321878142663948
709,-0.02299129590456706
710,-0.06633838471408261
711,-0.10101605576169505
712,-0.11835489128550128
713,-0.10101605576169505
714,-0.07067309359503417
715,-0.06200367583313106
716,-0.044664840309324834
717,-0.04899954919027639
718,-0.07934251135693728
719,-0.09234663799979194
720,-0.08801192911884038
721,-0.07500780247598572
722,-0.06633838471408261
723,-0.07500780247598572
724,-0.09234663799979194
725,-0.08367722023788883
726,-0.07500780247598572
727,-0.07934251135693728
728,-0.0966813468807435
729,-0.12268960016645283
730,-0.15736727121406527
731,-0.1833755244997746
732,-0.20938377778548395
733,-0.24839615771404794
734,-0.2527308665949995
735,-0.2527308665949995
736,-0.24406144883309638
737,-0.23539203107119328
738,-0.2527308665949995
739,-0.2917432465235635
740,-0.31341679092832125
741,-0.31341679092832125
742,-0.2874085376426119
743,-0.26573499323785416
744,-0.25706557547595105
745,-0.2787391198807088
746,-0.3004126642854666
747,-0.2787391198807088
748,-0.25706557547595105
749,-0.24406144883309638
750,-0.25706557547595105
751,-0.27440441099975726
752,-0.29607795540451504
753,-0.2874085376426119
754,-0.2917432465235635
755,-0.2830738287616604
756,-0.23972673995214483
757,-0.21805319554738706
758,-0.2137184866664355
759,-0.23539203107119328
760,-0.2787391198807088
761,-0.3004126642854666
762,-0.3004126642854666
763,-0.30474737316641815
764,-0.3177514998092728
765,-0.3394250442140306
766,-0.3394250442140306
767,-0.3177514998092728
768,-0.2830738287616604
769,-0.27440441099975726
770,-0.2874085376426119
771,-0.3090820820473697
772,-0.32208620869022436
773,-0.3264209175711759
774,-0.29607795540451504
775,-0.2830738287616604
776,-0.2874085376426119
777,-0.2917432465235635
778,-0.32208620869022436
779,-0.335090335333079
780,-0.31341679092832125
781,-0.2830738287616604
782,-0.26573499323785416
783,-0.27440441099975726
784,-0.2830738287616604
785,-0.2917432465235635
786,-0.3004126642854666
787,-0.3264209175711759
788,-0.35242917085688524
789,-0.3827721330235461
790,-0.35242917085688524
791,-0.26573499323785416
792,-0.11402018240454972
793,0.03769462842875471
794,0.14172764157159204
795,0.19807885702396227
796,0.2544300724763325
797,0.2804383257620418
798,0.297777161285848
799,0.3281201234525089
800,0.38447133890487917
801,0.43215313659534627
802,0.5058431875715227
803,0.5795332385476991
804,0.6315497451191178
805,0.6358844540000693
806,0.6142109095953115
807,0.5751985296667476
808,0.5405208586191351
809,0.5188473142143774
810,0.4971737698096196
811,0.4408225543572494
812,0.3714672122620245
813,0.3021118701667996
814,0.24576065471442937
815,0.19807885702396227
816,0.1460623504525436
817,0.06370288171446405
818,-0.018656587023615504
819,-0.1270243090474044
820,-0.27440441099975726
821,-0.4087803863092555
822,-0.5258175260949475
823,-0.6211811214758817
824,-0.7122100079758643
825,-0.8119083122377502
826,-0.8682595276901204
827,-0.8942677809758297
828,-0.9116066164996359
829,-0.9159413253805875
830,-0.9029371987377328
831,-0.8855983632139266
832,-0.8509206921663142
833,-0.842251274404411
834,-0.8162430211187017
835,-0.8205777299996533
836,-0.8032388944758471
837,-0.7859000589520408
838,-0.7642265145472831
839,-0.7382182612615736
840,-0.6948711724520581
841,-0.6731976280473003
842,-0.6731976280473003
843,-0.6688629191663488
844,-0.647189374761591
845,-0.6211811214758817
846,-0.5908381593092208
847,-0.5778340326663661
848,-0.5518257793806568
849,-0.5474910704997052
850,-0.5388216527378021
851,-0.5258175260949475
852,-0.49980927280923815
853,-0.5041439816901897
854,-0.5128133994520928
855,-0.5171481083330444
856,-0.5171481083330444
857,-0.5084786905711413
858,-0.49980927280923815
859,-0.49980927280923815
860,-0.5171481083330444
861,-0.5128133994520928
862,-0.5084786905711413
863,-0.49980927280923815
864,-0.4954745639282866
865,-0.4954745639282866
866,-0.4954745639282866
867,-0.49980927280923815
868,-0.4954745639282866
869,-0.49980927280923815
870,-0.4954745639282866
871,-0.5084786905711413
872,-0.5084786905711413
873,-0.5084786905711413
874,-0.49980927280923815
875,-0.49113985504733504
876,-0.48247043728543193
877,-0.4868051461663835
878,-0.49113985504733504
879,-0.49113985504733504
880,-0.4868051461663835
881,-0.4738010195235288
882,-0.4651316017616257
883,-0.46946631064257727
884,-0.4738010195235288
885,-0.4738010195235288
886,-0.4738010195235288
887,-0.45212747511877105
888,-0.4304539307140133
889,-0.4304539307140133
890,-0.4391233484759164
891,-0.4304539307140133
892,-0.4391233484759164
893,-0.40444567742830395
894,-0.3827721330235461
895,-0.37843742414259457
896,-0.3827721330235461
897,-0.374102715261643
898,-0.37843742414259457
899,-0.35242917085688524
900,-0.3264209175711759
901,-0.33075562645212747
902,-0.3177514998092728
903,-0.31341679092832125
904,-0.29607795540451504
905,-0.2874085376426119
906,-0.2700697021188057
907,-0.2614002843569026
908,-0.25706557547595105
909,-0.2527308665949995
910,-0.24406144883309638
911,-0.23105732219024172
912,-0.2050490689045324
913,-0.20071436002358084
914,-0.1833755244997746
915,-0.18771023338072615
916,-0.17470610673787149
917,-0.17037139785691993
918,-0.15303256233311371
919,-0.1443631445712106
920,-0.13135901792835594
921,-0.13135901792835594
922,-0.13135901792835594
923,-0.11402018240454972
924,-0.0966813468807435
925,-0.0966813468807435
926,-0.10101605576169505
927,-0.10535076464264662
928,-0.10101605576169505
929,-0.08801192911884038
930,-0.07934251135693728
931,-0.06633838471408261
932,-0.07500780247598572
933,-0.07500780247598572
934,-0.06633838471408261
935,-0.044664840309324834
936,-0.04033013142837328
937,-0.044664840309324834
938,-0.04033013142837328
939,-0.044664840309324834
940,-0.035995422547421725
941,-0.027326004785518613
942,-0.03166071366647017
943,-0.03166071366647017
944,-0.02299129590456706
945,-0.044664840309324834
946,-0.05333425807122794
947,-0.06200367583313106
948,-0.07500780247598572
949,-0.06633838471408261
950,-0.06633838471408261
951,-0.057668966952179504
952,-0.04899954919027639
953,-0.04033013142837328
954,-0.02299129590456706
955,-0.018656587023615504
956,-0.02299129590456706
957,-0.035995422547421725
958,-0.04033013142837328
959,-0.027326004785518613
960,-0.014321878142663948
961,-0.027326004785518613
962,-0.044664840309324834
963,-0.05333425807122794
964,-0.05333425807122794
965,-0.05333425807122794
966,-0.04033013142837328
967,-0.03166071366647017
968,-0.035995422547421725
969,-0.04899954919027639
970,-0.057668966952179504
971,-0.06633838471408261
972,-0.07934251135693728
973,-0.10968547352359817
974,-0.14869785345216216
975,-0.1833755244997746
976,-0.2137184866664355
977,-0.22672261330929017
978,-0.23105732219024172
979,-0.25706557547595105
980,-0.27440441099975726
981,-0.2917432465235635
982,-0.29607795540451504
983,-0.3004126642854666
984,-0.3090820820473697
985,-0.3004126642854666
986,-0.3090820820473697
987,-0.31341679092832125
988,-0.3177514998092728
989,-0.29607795540451504
990,-0.2874085376426119
991,-0.3004126642854666
992,-0.3004126642854666
993,-0.3004126642854666
994,-0.3004126642854666
995,-0.29607795540451504
996,-0.2874085376426119
997,-0.2830738287616604
998,-0.2917432465235635
999,-0.2830738287616604
