,0
0,0.13121076197926698
1,0.13121076197926698
2,0.13121076197926698
3,0.13121076197926698
4,0.13121076197926698
5,0.13121076197926698
6,0.13121076197926698
7,0.13121076197926698
8,0.15086662709285822
9,0.13907310802470346
10,0.13121076197926698
11,0.12727958895654873
12,0.11941724291111222
13,0.12334841593383047
14,0.11941724291111222
15,0.10762372384295747
16,0.10369255082023923
17,0.09976137779752098
18,0.11155489686567573
19,0.12334841593383047
20,0.10762372384295747
21,0.10369255082023923
22,0.09583020477480274
23,0.10369255082023923
24,0.12334841593383047
25,0.13907310802470346
26,0.12334841593383047
27,0.09583020477480274
28,0.08403668570664799
29,0.060449647570338494
30,0.06831199361577499
31,0.05258730152490199
32,0.048656128502183746
33,0.04079378245674725
34,0.029000263388592504
35,0.029000263388592504
36,0.029000263388592504
37,0.036862609434029
38,0.0447249554794655
39,0.036862609434029
40,0.029000263388592504
41,0.017206744320437756
42,0.017206744320437756
43,0.017206744320437756
44,0.017206744320437756
45,0.021137917343156006
46,0.013275571297719507
47,0.00541322525228301
48,0.021137917343156006
49,0.029000263388592504
50,0.029000263388592504
51,0.025069090365874253
52,0.021137917343156006
53,0.00541322525228301
54,0.017206744320437756
55,0.009344398275001258
56,0.025069090365874253
57,0.017206744320437756
58,0.009344398275001258
59,-0.0024491207931534873
60,-0.006380293815871736
61,-0.01817381288402648
62,-0.037829677997617724
63,-0.05748554311120897
64,-0.05748554311120897
65,-0.07321023520208196
66,-0.11252196542926446
67,-0.13610900356557395
68,-0.13610900356557395
69,-0.08893492729295496
70,-0.014242639861308233
71,0.07224316663849324
72,0.1901783573200407
73,0.33956293218333417
74,0.5400527563419649
75,0.7326802344551591
76,0.8584777711821431
77,0.905651847454762
78,0.8466842521139883
79,0.6540567740007941
80,0.37887466241051665
81,0.11548606988839398
82,-0.04176085102033598
83,-0.09679727333839146
84,-0.08893492729295496
85,-0.045692024043054225
86,-0.014242639861308233
87,-0.010311466838589984
88,-0.01817381288402648
89,-0.02603615892946298
90,-0.014242639861308233
91,-0.010311466838589984
92,-0.0024491207931534873
93,0.0014820522295647615
94,-0.006380293815871736
95,-0.01817381288402648
96,-0.022104985906744732
97,-0.010311466838589984
98,-0.02603615892946298
99,-0.01817381288402648
100,-0.014242639861308233
101,-0.01817381288402648
102,-0.014242639861308233
103,-0.010311466838589984
104,-0.014242639861308233
105,-0.014242639861308233
106,-0.02603615892946298
107,-0.03389850497489948
108,-0.01817381288402648
109,-0.010311466838589984
110,0.00541322525228301
111,-0.006380293815871736
112,-0.006380293815871736
113,-0.014242639861308233
114,-0.022104985906744732
115,-0.01817381288402648
116,-0.022104985906744732
117,-0.02603615892946298
118,-0.03389850497489948
119,-0.03389850497489948
120,-0.022104985906744732
121,-0.014242639861308233
122,-0.014242639861308233
123,-0.014242639861308233
124,-0.022104985906744732
125,-0.02996733195218123
126,-0.010311466838589984
127,-0.010311466838589984
128,-0.014242639861308233
129,-0.014242639861308233
130,-0.01817381288402648
131,-0.01817381288402648
132,-0.022104985906744732
133,-0.014242639861308233
134,-0.022104985906744732
135,-0.02996733195218123
136,-0.03389850497489948
137,-0.02996733195218123
138,-0.02603615892946298
139,-0.014242639861308233
140,-0.006380293815871736
141,-0.01817381288402648
142,-0.014242639861308233
143,-0.02603615892946298
144,-0.014242639861308233
145,-0.01817381288402648
146,-0.01817381288402648
147,-0.02603615892946298
148,-0.02603615892946298
149,-0.03389850497489948
150,-0.022104985906744732
151,-0.022104985906744732
152,-0.01817381288402648
153,-0.014242639861308233
154,-0.02996733195218123
155,-0.02996733195218123
156,-0.02603615892946298
157,-0.01817381288402648
158,-0.01817381288402648
159,-0.01817381288402648
160,-0.02996733195218123
161,-0.03389850497489948
162,-0.03389850497489948
163,-0.02603615892946298
164,-0.02603615892946298
165,-0.01817381288402648
166,-0.02996733195218123
167,-0.037829677997617724
168,-0.037829677997617724
169,-0.037829677997617724
170,-0.04176085102033598
171,-0.037829677997617724
172,-0.045692024043054225
173,-0.05748554311120897
174,-0.045692024043054225
175,-0.037829677997617724
176,-0.03389850497489948
177,-0.037829677997617724
178,-0.04962319706577247
179,-0.04962319706577247
180,-0.04176085102033598
181,-0.04176085102033598
182,-0.037829677997617724
183,-0.037829677997617724
184,-0.04176085102033598
185,-0.045692024043054225
186,-0.03389850497489948
187,-0.014242639861308233
188,-0.010311466838589984
189,-0.010311466838589984
190,-0.01817381288402648
191,-0.022104985906744732
192,-0.0024491207931534873
193,0.009344398275001258
194,0.009344398275001258
195,0.017206744320437756
196,0.013275571297719507
197,0.017206744320437756
198,0.021137917343156006
199,0.029000263388592504
200,0.0447249554794655
201,0.048656128502183746
202,0.048656128502183746
203,0.036862609434029
204,0.0447249554794655
205,0.05258730152490199
206,0.06438082059305675
207,0.05258730152490199
208,0.05258730152490199
209,0.0447249554794655
210,0.0447249554794655
211,0.05651847454762025
212,0.048656128502183746
213,0.0447249554794655
214,0.05258730152490199
215,0.0447249554794655
216,0.048656128502183746
217,0.048656128502183746
218,0.036862609434029
219,0.04079378245674725
220,0.04079378245674725
221,0.036862609434029
222,0.03293143641131075
223,0.036862609434029
224,0.04079378245674725
225,0.029000263388592504
226,0.025069090365874253
227,0.017206744320437756
228,0.029000263388592504
229,0.03293143641131075
230,0.04079378245674725
231,0.025069090365874253
232,0.025069090365874253
233,0.021137917343156006
234,0.029000263388592504
235,0.029000263388592504
236,0.036862609434029
237,0.03293143641131075
238,0.021137917343156006
239,0.017206744320437756
240,0.025069090365874253
241,0.029000263388592504
242,0.021137917343156006
243,0.025069090365874253
244,0.009344398275001258
245,0.009344398275001258
246,0.00541322525228301
247,0.013275571297719507
248,0.009344398275001258
249,0.0014820522295647615
250,0.0014820522295647615
251,0.00541322525228301
252,0.013275571297719507
253,0.021137917343156006
254,0.021137917343156006
255,0.017206744320437756
256,0.013275571297719507
257,0.0014820522295647615
258,0.017206744320437756
259,0.013275571297719507
260,0.009344398275001258
261,0.00541322525228301
262,0.0014820522295647615
263,-0.010311466838589984
264,0.0014820522295647615
265,0.009344398275001258
266,0.017206744320437756
267,0.0014820522295647615
268,-0.010311466838589984
269,-0.014242639861308233
270,-0.0024491207931534873
271,0.009344398275001258
272,0.00541322525228301
273,0.0014820522295647615
274,-0.006380293815871736
275,-0.014242639861308233
276,-0.010311466838589984
277,-0.0024491207931534873
278,0.0014820522295647615
279,0.00541322525228301
280,0.00541322525228301
281,0.0014820522295647615
282,0.009344398275001258
283,0.00541322525228301
284,0.017206744320437756
285,0.009344398275001258
286,0.009344398275001258
287,0.00541322525228301
288,0.00541322525228301
289,0.017206744320437756
290,0.025069090365874253
291,0.013275571297719507
292,0.00541322525228301
293,-0.0024491207931534873
294,0.00541322525228301
295,0.013275571297719507
296,0.017206744320437756
297,0.025069090365874253
298,0.03293143641131075
299,0.029000263388592504
300,0.029000263388592504
301,0.03293143641131075
302,0.048656128502183746
303,0.048656128502183746
304,0.0447249554794655
305,0.06831199361577499
306,0.07224316663849324
307,0.08403668570664799
308,0.08796785872936623
309,0.08403668570664799
310,0.07617433966121148
311,0.06438082059305675
312,0.07224316663849324
313,0.06831199361577499
314,0.06831199361577499
315,0.06831199361577499
316,0.06438082059305675
317,0.060449647570338494
318,0.05651847454762025
319,0.060449647570338494
320,0.07224316663849324
321,0.08010551268392974
322,0.08403668570664799
323,0.05258730152490199
324,0.021137917343156006
325,0.021137917343156006
326,0.009344398275001258
327,0.0014820522295647615
328,-0.014242639861308233
329,-0.014242639861308233
330,-0.010311466838589984
331,-0.0024491207931534873
332,-0.006380293815871736
333,-0.0024491207931534873
334,-0.010311466838589984
335,-0.022104985906744732
336,-0.02603615892946298
337,-0.022104985906744732
338,-0.022104985906744732
339,-0.02996733195218123
340,-0.02603615892946298
341,-0.03389850497489948
342,-0.014242639861308233
343,-0.01817381288402648
344,-0.014242639861308233
345,-0.006380293815871736
346,-0.02603615892946298
347,-0.03389850497489948
348,-0.022104985906744732
349,-0.014242639861308233
350,-0.010311466838589984
351,-0.014242639861308233
352,-0.02996733195218123
353,-0.04176085102033598
354,-0.037829677997617724
355,-0.05355437008849072
356,-0.08893492729295496
357,-0.10465961938382795
358,-0.12824665752013745
359,-0.1557648686791652
360,-0.17542073379275644
361,-0.15183369565644694
362,-0.08107258124751847
363,0.009344398275001258
364,0.11941724291111222
365,0.23342126056994145
366,0.42997991170585387
367,0.6304697358644846
368,0.811303694909524
369,0.9331700586137898
370,0.984275307909127
371,0.9567570967500992
372,0.8388219060685518
373,0.6304697358644846
374,0.37494348938779837
375,0.1587289731382947
376,0.03293143641131075
377,-0.06141671613392722
378,-0.1085907924065462
379,-0.12824665752013745
380,-0.11252196542926446
381,-0.08893492729295496
382,-0.06141671613392722
383,-0.06141671613392722
384,-0.05748554311120897
385,-0.06141671613392722
386,-0.05355437008849072
387,-0.05355437008849072
388,-0.05355437008849072
389,-0.06534788915664547
390,-0.05748554311120897
391,-0.05748554311120897
392,-0.05748554311120897
393,-0.04962319706577247
394,-0.06534788915664547
395,-0.07714140822480021
396,-0.07714140822480021
397,-0.06927906217936372
398,-0.06534788915664547
399,-0.06141671613392722
400,-0.07321023520208196
401,-0.06534788915664547
402,-0.05748554311120897
403,-0.04962319706577247
404,-0.06141671613392722
405,-0.06141671613392722
406,-0.07321023520208196
407,-0.07714140822480021
408,-0.07714140822480021
409,-0.06141671613392722
410,-0.06141671613392722
411,-0.06534788915664547
412,-0.07321023520208196
413,-0.08107258124751847
414,-0.06927906217936372
415,-0.07714140822480021
416,-0.07321023520208196
417,-0.07714140822480021
418,-0.08107258124751847
419,-0.07714140822480021
420,-0.06927906217936372
421,-0.06927906217936372
422,-0.06534788915664547
423,-0.06141671613392722
424,-0.07321023520208196
425,-0.07714140822480021
426,-0.06141671613392722
427,-0.06141671613392722
428,-0.05748554311120897
429,-0.05748554311120897
430,-0.07714140822480021
431,-0.07321023520208196
432,-0.06534788915664547
433,-0.06141671613392722
434,-0.04962319706577247
435,-0.06141671613392722
436,-0.06534788915664547
437,-0.07714140822480021
438,-0.06927906217936372
439,-0.06141671613392722
440,-0.06141671613392722
441,-0.05748554311120897
442,-0.07321023520208196
443,-0.08107258124751847
444,-0.08107258124751847
445,-0.06927906217936372
446,-0.06534788915664547
447,-0.07321023520208196
448,-0.08107258124751847
449,-0.08500375427023671
450,-0.08500375427023671
451,-0.07714140822480021
452,-0.08107258124751847
453,-0.08893492729295496
454,-0.08500375427023671
455,-0.09679727333839146
456,-0.0928661003156732
457,-0.0928661003156732
458,-0.08500375427023671
459,-0.0928661003156732
460,-0.1085907924065462
461,-0.11252196542926446
462,-0.1085907924065462
463,-0.09679727333839146
464,-0.10465961938382795
465,-0.1085907924065462
466,-0.11252196542926446
467,-0.12431548449741919
468,-0.1164531384519827
469,-0.11252196542926446
470,-0.1085907924065462
471,-0.11252196542926446
472,-0.12431548449741919
473,-0.12824665752013745
474,-0.1164531384519827
475,-0.1085907924065462
476,-0.10465961938382795
477,-0.10072844636110971
478,-0.09679727333839146
479,-0.10072844636110971
480,-0.07714140822480021
481,-0.06534788915664547
482,-0.045692024043054225
483,-0.04176085102033598
484,-0.037829677997617724
485,-0.04176085102033598
486,-0.022104985906744732
487,-0.010311466838589984
488,-0.0024491207931534873
489,-0.006380293815871736
490,-0.014242639861308233
491,-0.014242639861308233
492,-0.006380293815871736
493,0.0014820522295647615
494,0.009344398275001258
495,0.009344398275001258
496,-0.006380293815871736
497,-0.006380293815871736
498,-0.0024491207931534873
499,0.00541322525228301
500,0.00541322525228301
501,0.013275571297719507
502,-0.006380293815871736
503,-0.014242639861308233
504,0.00541322525228301
505,0.0014820522295647615
506,0.009344398275001258
507,0.009344398275001258
508,-0.006380293815871736
509,-0.010311466838589984
510,0.0014820522295647615
511,0.00541322525228301
512,-0.0024491207931534873
513,0.00541322525228301
514,-0.0024491207931534873
515,-0.0024491207931534873
516,0.0014820522295647615
517,0.013275571297719507
518,0.017206744320437756
519,0.00541322525228301
520,0.0014820522295647615
521,-0.006380293815871736
522,-0.0024491207931534873
523,0.009344398275001258
524,-0.0024491207931534873
525,-0.0024491207931534873
526,-0.0024491207931534873
527,-0.014242639861308233
528,-0.0024491207931534873
529,-0.006380293815871736
530,-0.0024491207931534873
531,-0.010311466838589984
532,-0.01817381288402648
533,-0.022104985906744732
534,-0.01817381288402648
535,-0.01817381288402648
536,-0.014242639861308233
537,-0.010311466838589984
538,-0.02603615892946298
539,-0.02996733195218123
540,-0.02603615892946298
541,-0.01817381288402648
542,-0.014242639861308233
543,-0.014242639861308233
544,-0.02603615892946298
545,-0.02603615892946298
546,-0.02603615892946298
547,-0.006380293815871736
548,-0.014242639861308233
549,-0.01817381288402648
550,-0.022104985906744732
551,-0.03389850497489948
552,-0.01817381288402648
553,-0.014242639861308233
554,-0.014242639861308233
555,-0.01817381288402648
556,-0.03389850497489948
557,-0.037829677997617724
558,-0.03389850497489948
559,-0.02996733195218123
560,-0.022104985906744732
561,-0.02603615892946298
562,-0.02603615892946298
563,-0.02603615892946298
564,-0.02603615892946298
565,-0.014242639861308233
566,-0.014242639861308233
567,-0.01817381288402648
568,-0.02603615892946298
569,-0.02996733195218123
570,-0.02996733195218123
571,-0.022104985906744732
572,-0.014242639861308233
573,-0.02603615892946298
574,-0.02603615892946298
575,-0.03389850497489948
576,-0.02996733195218123
577,-0.022104985906744732
578,-0.014242639861308233
579,-0.022104985906744732
580,-0.022104985906744732
581,-0.022104985906744732
582,-0.014242639861308233
583,-0.01817381288402648
584,-0.014242639861308233
585,-0.01817381288402648
586,-0.02603615892946298
587,-0.02603615892946298
588,-0.022104985906744732
589,-0.014242639861308233
590,-0.0024491207931534873
591,0.013275571297719507
592,0.009344398275001258
593,0.013275571297719507
594,0.021137917343156006
595,0.029000263388592504
596,0.036862609434029
597,0.036862609434029
598,0.036862609434029
599,0.0447249554794655
600,0.048656128502183746
601,0.05651847454762025
602,0.06831199361577499
603,0.07617433966121148
604,0.05651847454762025
605,0.05258730152490199
606,0.05651847454762025
607,0.05258730152490199
608,0.060449647570338494
609,0.05258730152490199
610,0.048656128502183746
611,0.029000263388592504
612,0.029000263388592504
613,0.036862609434029
614,0.048656128502183746
615,0.06831199361577499
616,0.07224316663849324
617,0.06438082059305675
618,0.036862609434029
619,0.03293143641131075
620,0.025069090365874253
621,0.021137917343156006
622,0.00541322525228301
623,-0.006380293815871736
624,-0.022104985906744732
625,-0.014242639861308233
626,-0.01817381288402648
627,-0.01817381288402648
628,-0.03389850497489948
629,-0.045692024043054225
630,-0.037829677997617724
631,-0.02603615892946298
632,-0.02996733195218123
633,-0.03389850497489948
634,-0.04176085102033598
635,-0.04962319706577247
636,-0.05355437008849072
637,-0.045692024043054225
638,-0.04176085102033598
639,-0.04176085102033598
640,-0.05355437008849072
641,-0.05748554311120897
642,-0.05355437008849072
643,-0.04962319706577247
644,-0.03389850497489948
645,-0.045692024043054225
646,-0.06141671613392722
647,-0.07321023520208196
648,-0.07714140822480021
649,-0.09679727333839146
650,-0.12038431147470095
651,-0.14004017658829218
652,-0.16362721472460168
653,-0.19114542588362943
654,-0.20293894495178416
655,-0.16755838774731993
656,-0.07321023520208196
657,0.048656128502183746
658,0.17445366522916772
659,0.33956293218333417
660,0.5675709675009927
661,0.7877166567732146
662,0.9410324046592262
663,1.0
664,0.9135141935001986
665,0.6540567740007941
666,0.28452650986527867
667,-0.006380293815871736
668,-0.1479025226337287
669,-0.15183369565644694
670,-0.10465961938382795
671,-0.08107258124751847
672,-0.06534788915664547
673,-0.06141671613392722
674,-0.06534788915664547
675,-0.06141671613392722
676,-0.06534788915664547
677,-0.07321023520208196
678,-0.06534788915664547
679,-0.07321023520208196
680,-0.06141671613392722
681,-0.06534788915664547
682,-0.06534788915664547
683,-0.07714140822480021
684,-0.07321023520208196
685,-0.06927906217936372
686,-0.06927906217936372
687,-0.08107258124751847
688,-0.07321023520208196
689,-0.08500375427023671
690,-0.08107258124751847
691,-0.07321023520208196
692,-0.07321023520208196
693,-0.08500375427023671
694,-0.08500375427023671
695,-0.09679727333839146
696,-0.08500375427023671
697,-0.07714140822480021
698,-0.07714140822480021
699,-0.07321023520208196
700,-0.08893492729295496
701,-0.0928661003156732
702,-0.08500375427023671
703,-0.08107258124751847
704,-0.07714140822480021
705,-0.07714140822480021
706,-0.08893492729295496
707,-0.08500375427023671
708,-0.06927906217936372
709,-0.06534788915664547
710,-0.06927906217936372
711,-0.06927906217936372
712,-0.06534788915664547
713,-0.08107258124751847
714,-0.07321023520208196
715,-0.06141671613392722
716,-0.06927906217936372
717,-0.06927906217936372
718,-0.08107258124751847
719,-0.08893492729295496
720,-0.08893492729295496
721,-0.08107258124751847
722,-0.08107258124751847
723,-0.07714140822480021
724,-0.08893492729295496
725,-0.08893492729295496
726,-0.08500375427023671
727,-0.08107258124751847
728,-0.06927906217936372
729,-0.06927906217936372
730,-0.07714140822480021
731,-0.08893492729295496
732,-0.07714140822480021
733,-0.07321023520208196
734,-0.06534788915664547
735,-0.06927906217936372
736,-0.06927906217936372
737,-0.07321023520208196
738,-0.05748554311120897
739,-0.06927906217936372
740,-0.06141671613392722
741,-0.06141671613392722
742,-0.06927906217936372
743,-0.08107258124751847
744,-0.07321023520208196
745,-0.07321023520208196
746,-0.07714140822480021
747,-0.08107258124751847
748,-0.08500375427023671
749,-0.08500375427023671
750,-0.08893492729295496
751,-0.08107258124751847
752,-0.08107258124751847
753,-0.07714140822480021
754,-0.09679727333839146
755,-0.0928661003156732
756,-0.09679727333839146
757,-0.08500375427023671
758,-0.08500375427023671
759,-0.08500375427023671
760,-0.08500375427023671
761,-0.08893492729295496
762,-0.08893492729295496
763,-0.08107258124751847
764,-0.06534788915664547
765,-0.06534788915664547
766,-0.06141671613392722
767,-0.04962319706577247
768,-0.037829677997617724
769,-0.022104985906744732
770,-0.01817381288402648
771,-0.014242639861308233
772,-0.01817381288402648
773,-0.01817381288402648
774,-0.010311466838589984
775,-0.006380293815871736
776,0.00541322525228301
777,0.00541322525228301
778,-0.0024491207931534873
779,0.0014820522295647615
780,0.00541322525228301
781,0.009344398275001258
782,0.009344398275001258
783,0.009344398275001258
784,0.0014820522295647615
785,0.0014820522295647615
786,0.0014820522295647615
787,-0.0024491207931534873
788,0.009344398275001258
789,0.00541322525228301
790,-0.0024491207931534873
791,-0.006380293815871736
792,-0.010311466838589984
793,0.0014820522295647615
794,0.00541322525228301
795,0.00541322525228301
796,-0.006380293815871736
797,-0.010311466838589984
798,0.00541322525228301
799,0.0014820522295647615
800,0.013275571297719507
801,0.0014820522295647615
802,-0.010311466838589984
803,-0.014242639861308233
804,-0.006380293815871736
805,-0.006380293815871736
806,-0.006380293815871736
807,-0.010311466838589984
808,-0.02996733195218123
809,-0.02996733195218123
810,-0.022104985906744732
811,-0.01817381288402648
812,-0.014242639861308233
813,-0.01817381288402648
814,-0.022104985906744732
815,-0.037829677997617724
816,-0.02996733195218123
817,-0.02996733195218123
818,-0.03389850497489948
819,-0.037829677997617724
820,-0.03389850497489948
821,-0.04176085102033598
822,-0.03389850497489948
823,-0.02996733195218123
824,-0.022104985906744732
825,-0.03389850497489948
826,-0.02996733195218123
827,-0.04176085102033598
828,-0.04176085102033598
829,-0.02996733195218123
830,-0.03389850497489948
831,-0.02996733195218123
832,-0.045692024043054225
833,-0.05355437008849072
834,-0.045692024043054225
835,-0.037829677997617724
836,-0.04176085102033598
837,-0.037829677997617724
838,-0.04176085102033598
839,-0.05355437008849072
840,-0.045692024043054225
841,-0.04176085102033598
842,-0.02996733195218123
843,-0.02996733195218123
844,-0.02996733195218123
845,-0.045692024043054225
846,-0.04176085102033598
847,-0.02603615892946298
848,-0.02603615892946298
849,-0.022104985906744732
850,-0.03389850497489948
851,-0.04176085102033598
852,-0.037829677997617724
853,-0.03389850497489948
854,-0.03389850497489948
855,-0.03389850497489948
856,-0.04962319706577247
857,-0.05748554311120897
858,-0.03389850497489948
859,-0.037829677997617724
860,-0.03389850497489948
861,-0.037829677997617724
862,-0.037829677997617724
863,-0.045692024043054225
864,-0.037829677997617724
865,-0.02603615892946298
866,-0.03389850497489948
867,-0.02603615892946298
868,-0.02603615892946298
869,-0.02603615892946298
870,-0.022104985906744732
871,0.0014820522295647615
872,0.00541322525228301
873,0.00541322525228301
874,0.0014820522295647615
875,0.00541322525228301
876,0.017206744320437756
877,0.021137917343156006
878,0.029000263388592504
879,0.025069090365874253
880,0.025069090365874253
881,0.029000263388592504
882,0.036862609434029
883,0.0447249554794655
884,0.05258730152490199
885,0.04079378245674725
886,0.036862609434029
887,0.029000263388592504
888,0.025069090365874253
889,0.036862609434029
890,0.03293143641131075
891,0.029000263388592504
892,0.025069090365874253
893,0.029000263388592504
894,0.025069090365874253
895,0.029000263388592504
896,0.036862609434029
897,0.0447249554794655
898,0.05651847454762025
899,0.04079378245674725
900,0.025069090365874253
901,0.0014820522295647615
902,0.0014820522295647615
903,-0.02603615892946298
904,-0.037829677997617724
905,-0.05355437008849072
906,-0.05748554311120897
907,-0.05355437008849072
908,-0.045692024043054225
909,-0.04962319706577247
910,-0.05748554311120897
911,-0.06141671613392722
912,-0.06534788915664547
913,-0.05748554311120897
914,-0.05748554311120897
915,-0.05748554311120897
916,-0.06534788915664547
917,-0.07321023520208196
918,-0.06927906217936372
919,-0.04962319706577247
920,-0.04962319706577247
921,-0.06141671613392722
922,-0.06534788915664547
923,-0.08107258124751847
924,-0.07321023520208196
925,-0.06927906217936372
926,-0.06141671613392722
927,-0.07321023520208196
928,-0.08893492729295496
929,-0.1164531384519827
930,-0.12824665752013745
931,-0.15183369565644694
932,-0.1557648686791652
933,-0.16755838774731993
934,-0.1793519068154747
935,-0.22652598308809366
936,-0.2619065402925579
937,-0.25011302122440315
938,-0.20687011797450242
939,-0.14397134961101044
940,-0.05748554311120897
941,0.03293143641131075
942,0.15479780011557645
943,0.31597589404702464
944,0.5361215833192466
945,0.7444737535233138
946,0.8820648093184525
947,0.921376539545635
948,0.8506154251367065
949,0.6186762167963299
950,0.2963200289334334
951,0.00541322525228301
952,-0.1479025226337287
953,-0.16362721472460168
954,-0.12824665752013745
955,-0.07714140822480021
956,-0.06141671613392722
957,-0.06141671613392722
958,-0.06927906217936372
959,-0.07714140822480021
960,-0.07321023520208196
961,-0.05748554311120897
962,-0.06141671613392722
963,-0.06534788915664547
964,-0.07321023520208196
965,-0.07714140822480021
966,-0.07321023520208196
967,-0.06927906217936372
968,-0.06141671613392722
969,-0.06534788915664547
970,-0.07714140822480021
971,-0.08107258124751847
972,-0.07714140822480021
973,-0.06534788915664547
974,-0.07321023520208196
975,-0.07714140822480021
976,-0.07321023520208196
977,-0.07321023520208196
978,-0.07714140822480021
979,-0.06141671613392722
980,-0.05748554311120897
981,-0.06141671613392722
982,-0.06534788915664547
983,-0.06927906217936372
984,-0.06927906217936372
985,-0.06927906217936372
986,-0.06534788915664547
987,-0.06534788915664547
988,-0.07321023520208196
989,-0.07321023520208196
990,-0.06927906217936372
991,-0.06534788915664547
992,-0.05748554311120897
993,-0.04962319706577247
994,-0.05748554311120897
995,-0.06534788915664547
996,-0.06141671613392722
997,-0.05748554311120897
998,-0.04962319706577247
999,-0.05748554311120897
